time (s)	magX	magY	magZ
1532.818895	-37.570606	-81.302597	-871.643616
1532.822250	-30.264935	-76.802307	-871.585144
1532.825561	-22.783932	-73.412476	-872.812561
1532.828892	-15.770489	-69.145966	-872.870911
1532.832222	-8.698603	-64.821014	-873.455383
1532.835559	-1.743605	-60.203823	-872.169556
1532.838892	5.386726	-56.112652	-872.987793
1532.842225	12.867733	-51.846142	-872.344971
1532.845556	19.296722	-47.112064	-871.000671
1532.848891	27.712852	-42.027317	-871.351379
1532.852219	34.901630	-37.410137	-870.240845
1532.855554	41.622849	-33.669632	-867.435547
1532.858899	48.986961	-28.818668	-866.617249
1532.862219	55.299061	-24.318378	-864.922424
1532.865554	62.195610	-19.701191	-863.052124
1532.868889	69.968842	-14.733337	-862.233887
1532.872224	76.573166	-11.518843	-858.844055
1532.875581	83.995728	-6.609434	-856.330933
1532.878883	91.242950	-2.401369	-853.817749
1532.882221	97.964172	1.865141	-850.720154
1532.885549	104.568497	5.722535	-848.674561
1532.888883	111.815720	9.287703	-843.823608
1532.892257	118.010925	13.203541	-840.959778
1532.895554	125.141266	17.236271	-837.803711
1532.898882	131.453354	22.321016	-833.770996
1532.902217	137.414780	25.301729	-829.855164
1532.905554	144.428223	29.685131	-826.056213
1532.908899	150.564987	33.016518	-821.205261
1532.912214	156.760193	36.406345	-817.289429
1532.915550	163.072296	39.211723	-812.672180
1532.918883	169.209061	42.835335	-808.522644
1532.922211	174.527588	45.757603	-804.957458
1532.925556	179.670776	49.907219	-800.223389
1532.928883	185.515305	52.361927	-795.664612
1532.932214	191.476746	55.342640	-789.878540
1532.935548	196.853714	58.323353	-785.728882
1532.938882	202.055344	61.713184	-779.592163
1532.942213	206.906311	64.693893	-775.500977
1532.945549	212.283279	67.791504	-770.474670
1532.948881	217.075806	70.655319	-764.805481
1532.952216	221.751434	73.694481	-758.084290
1532.955547	226.543945	76.908981	-754.109985
1532.958879	231.453354	79.655907	-749.551208
1532.962213	235.310760	83.221069	-742.479370
1532.965544	239.285034	86.084900	-737.920654
1532.968877	244.194443	89.474731	-731.783813
1532.972209	248.051849	91.870987	-725.413269
1532.975546	251.733887	95.143921	-718.984314
1532.978887	255.532852	97.540176	-713.373596
1532.982207	259.799347	100.287125	-706.243225
1532.985542	262.312500	102.917160	-699.814270
1532.988872	265.293213	106.014755	-695.138611
1532.992207	270.202606	109.053925	-688.125183
1532.995541	273.124878	111.859299	-681.345520
1532.998874	276.514740	114.314011	-675.559448
1533.002209	279.378540	116.418030	-669.247314
1533.005544	282.359253	118.931183	-663.110535
1533.008874	285.339966	121.268997	-655.220459
1533.012207	288.086914	123.314590	-650.194153
1533.015542	291.009186	124.834167	-643.122253
1533.018871	293.288544	127.230423	-636.693237
1533.022204	295.567902	129.100677	-630.556519
1533.025537	298.081055	130.795593	-624.828857
1533.028872	299.717529	132.432068	-617.932312
1533.032212	302.464478	134.419205	-612.438477
1533.035535	304.451599	135.120544	-606.360107
1533.038873	306.614075	137.107697	-599.931091
1533.042201	308.367462	138.101257	-593.852844
1533.045537	309.302582	139.620834	-589.060303
1533.048870	312.400146	140.614410	-582.572876
1533.052205	313.744415	142.017105	-576.669922
1533.055532	315.497772	143.010666	-571.351379
1533.058868	315.906891	143.770462	-566.208130
1533.062206	317.543365	145.056259	-560.538940
1533.065537	318.887604	145.991379	-554.519104
1533.068866	320.874756	146.984955	-549.551208
1533.072198	321.692993	147.627853	-544.349609
1533.075535	322.569672	148.562973	-538.914185
1533.078864	323.913910	149.088989	-533.770996
1533.082199	324.206116	149.848770	-526.640686
1533.085535	325.842621	151.076126	-521.848083
1533.088864	325.842621	151.076126	-516.412720
1533.092197	326.660828	152.245041	-511.620209
1533.095539	327.420624	153.004822	-505.658783
1533.098862	328.238861	154.232178	-500.866241
1533.102200	328.647980	154.816635	-495.781525
1533.105532	328.531097	155.693314	-491.222778
1533.108862	328.589539	156.803772	-486.897827
1533.112213	328.940216	157.738892	-482.105316
1533.115531	329.992249	157.972672	-476.552979
1533.118865	329.641541	158.966248	-471.702026
1533.123532	329.933777	160.544266	-462.409241
1533.126859	329.875336	160.193604	-457.558258
1533.130183	329.583099	161.362503	-453.350189
1533.133485	329.992249	162.063858	-448.499237
1533.136816	329.875336	162.531418	-443.648254
1533.140218	329.290894	163.232758	-439.907776
1533.143117	329.758453	163.817200	-435.056793
1533.146435	329.290894	163.817200	-430.322723
1533.150149	329.349304	164.050995	-426.757538
1533.153488	329.524658	164.518570	-421.614349
1533.156433	329.232452	165.219910	-419.042786
1533.159766	329.232452	164.986130	-414.834717
1533.163101	328.998657	165.453690	-410.801971
1533.166362	329.349304	165.512131	-407.119904
1533.169697	328.531097	165.862808	-403.788544
1533.173056	328.647980	165.103012	-400.398712
1533.176433	328.531097	165.161453	-397.885559
1533.179761	328.121979	165.512131	-393.735931
1533.183030	327.186859	165.921249	-390.462982
1533.186367	328.121979	165.629028	-388.475830
1533.189720	326.836182	165.453690	-386.079590
1533.193114	326.836182	164.927673	-382.689758
1533.196437	326.427063	165.161453	-379.767487
1533.199701	326.368591	165.512131	-377.195892
1533.203025	326.251740	165.044556	-373.747620
1533.206385	325.316620	165.161453	-371.351349
1533.209741	325.842621	165.570572	-369.773346
1533.213097	325.141235	164.986130	-366.383514
1533.216360	324.381470	165.219910	-365.097717
1533.219693	323.621704	164.693893	-362.584564
1533.223050	323.504791	165.512131	-360.071381
1533.226395	323.329468	165.395233	-357.207581
1533.229769	322.861908	165.629028	-354.635986
1533.233024	322.277435	166.271912	-352.999512
1533.236358	322.335876	165.862808	-350.720154
1533.239708	322.218994	165.921249	-348.323883
1533.243044	321.166992	166.681030	-346.687408
1533.246435	320.231842	166.797928	-343.414459
1533.249689	320.056519	165.862808	-341.427338
1533.253027	319.355164	166.739487	-340.141541
1533.256378	318.244720	166.681030	-338.154419
1533.259270	318.536926	166.739487	-336.634827
1533.262621	318.595367	167.207047	-334.180115
1533.265936	317.718719	166.973267	-333.537231
1533.269269	316.958923	167.382370	-330.673370
1533.272604	316.608246	168.317505	-329.504486
1533.275932	316.432892	167.090164	-328.043365
1533.279291	316.432892	167.674606	-326.699097
1533.282600	315.731567	167.616150	-324.770386
1533.285932	315.264008	167.733047	-324.185974
1533.289270	315.088654	167.966827	-323.659943
1533.292602	315.030212	167.791504	-321.672821
1533.295949	314.913330	167.791504	-320.211670
1533.299265	314.445770	167.616150	-319.685669
1533.302600	313.919739	168.668182	-318.984314
1533.305932	313.627502	167.849945	-318.575226
1533.309266	313.510651	167.966827	-317.289398
1533.312611	313.627502	167.791504	-316.646515
1533.315943	313.043091	167.440826	-315.652954
1533.319262	313.569092	167.616150	-316.003601
1533.322618	312.809296	168.083725	-315.419159
1533.325927	312.809296	167.966827	-315.243805
1533.329280	312.984619	167.908386	-315.010040
1533.332604	312.458618	167.733047	-314.600922
1533.335928	313.101532	167.207047	-314.191803
1533.339264	312.809296	167.791504	-314.484009
1533.342593	312.809296	167.440826	-314.425598
1533.345969	313.510651	167.791504	-313.782684
1533.349273	312.984619	167.674606	-313.958008
1533.352173	312.809296	167.849945	-314.367157
1533.355502	312.458618	167.849945	-314.074921
1533.358840	312.049500	167.849945	-314.542480
1533.362170	312.224823	168.785065	-314.776245
1533.365531	311.932587	168.668182	-314.834717
1533.368840	312.049500	169.077301	-315.243805
1533.372168	311.523499	169.311081	-314.425598
1533.375506	312.341736	169.135742	-315.126923
1533.378834	311.465027	169.544861	-315.419159
1533.382206	311.991058	169.486404	-315.652954
1533.385502	312.049500	170.363098	-315.302277
1533.388835	311.172821	170.538437	-316.120514
1533.392166	311.523499	170.830658	-317.406281
1533.395498	311.114380	171.239777	-317.172516
1533.398849	311.640381	171.648895	-317.114075
1533.402164	311.465027	171.941116	-317.640076
1533.405501	311.640381	172.759354	-318.867432
1533.408831	311.874176	173.226929	-318.808990
1533.412164	312.049500	173.402252	-320.854553
1533.415500	311.406586	173.694489	-321.380585
1533.418832	310.997467	174.045151	-322.666382
1533.422168	311.465027	174.395828	-324.010620
1533.425497	311.874176	175.038727	-323.952179
1533.428833	312.517059	174.863388	-326.348450
1533.432165	312.341736	174.395828	-327.049774
1533.435500	312.633942	175.330948	-329.679810
1533.438827	312.633942	175.740067	-330.381165
1533.442163	313.043091	175.506287	-332.485199
1533.445494	313.685974	175.740067	-334.764587
1533.448828	314.036652	175.915405	-336.225708
1533.452182	313.802887	175.681625	-337.979065
1533.455492	313.978210	175.973846	-340.375336
1533.458825	314.679535	176.032303	-342.654663
1533.462161	314.738007	176.441406	-344.466492
1533.465495	314.621094	176.558289	-346.921204
1533.468830	314.679535	176.616745	-348.849884
1533.472163	315.088654	177.084305	-350.953918
1533.475492	315.380890	176.850525	-353.057953
1533.478823	315.439331	177.376541	-355.629547
1533.482165	316.082214	177.142761	-358.668701
1533.485491	316.549805	177.844101	-360.422089
1533.488833	316.316010	177.551865	-363.461243
1533.492161	316.842010	178.370117	-365.915955
1533.495493	316.666687	178.954559	-369.071991
1533.498826	316.257568	178.779221	-370.533142
1533.502160	317.017365	178.896103	-373.104706
1533.505486	317.368011	179.714355	-375.793213
1533.508823	317.075806	180.298798	-378.890808
1533.512172	318.010925	180.357239	-381.754639
1533.515486	317.894043	180.941711	-384.559998
1533.518822	317.835571	181.350815	-386.956268
1533.522154	317.017365	181.818390	-390.462982
1533.525486	317.134247	182.169067	-393.034576
1533.528823	317.718719	182.695053	-395.138611
1533.532153	317.952484	182.928833	-399.054443
1533.535486	317.484924	184.156189	-401.976715
1533.538823	317.835571	183.922409	-405.717224
1533.542176	317.309570	184.448425	-408.464172
1533.545484	318.127808	184.565308	-413.198242
1533.548827	317.484924	184.506866	-417.581635
1533.552153	317.192688	184.506866	-420.854553
1533.555485	317.484924	185.500443	-424.244415
1533.558821	317.660248	185.383545	-428.686249
1533.562150	316.900452	185.909561	-431.783875
1533.565515	317.192688	186.435562	-435.758148
1533.568817	317.192688	186.026443	-439.907776
1533.572153	316.491364	185.792664	-444.174255
1533.575481	316.549805	185.909561	-448.148560
1533.578818	315.906891	185.968002	-452.415070
1533.582153	316.199127	186.552460	-457.850464
1533.585485	316.023804	185.500443	-462.876770
1533.588815	315.614655	185.325104	-467.493988
1533.592149	314.971771	185.617325	-472.286499
1533.595485	315.147095	184.740662	-476.669891
1533.598814	314.621094	184.974442	-481.988403
1533.602175	313.919739	184.857544	-486.664032
1533.605476	312.809296	184.156189	-491.865662
1533.608817	312.049500	184.097748	-496.249084
1533.612144	311.991058	183.688629	-502.268951
1533.615480	310.939026	184.039307	-506.886108
1533.618815	310.529907	183.045731	-511.737091
1533.622148	309.302582	182.987289	-518.575195
1533.625480	308.542786	182.811951	-522.257263
1533.628811	306.906311	182.344391	-528.218628
1533.632172	306.204987	182.169067	-534.530762
1533.635477	304.393158	181.526154	-540.901306
1533.638810	303.165802	181.000137	-546.278320
1533.642142	302.289124	181.292374	-550.953918
1533.645478	300.711090	180.591034	-555.980225
1533.648809	298.899292	180.532578	-562.000061
1533.652141	297.438171	179.363678	-566.383545
1533.655476	295.801697	179.305237	-571.935791
1533.658810	293.872986	178.837677	-576.436096
1533.662144	292.353424	179.129898	-583.332642
1533.665474	289.898712	178.136322	-587.891418
1533.668804	287.268677	177.902542	-594.612610
1533.672142	285.573761	176.733643	-600.281860
1533.675471	283.995728	176.382965	-607.470581
1533.678807	281.424133	175.740067	-611.444885
1533.682141	279.320099	174.746490	-617.581604
1533.685475	276.164032	174.103592	-622.841736
1533.688803	273.884674	172.408676	-629.562927
1533.692136	271.020844	172.057999	-635.641235
1533.695467	268.332367	170.947540	-641.135071
1533.698806	265.585419	169.311081	-646.979614
1533.702137	262.487854	167.733047	-653.759338
1533.705471	260.208466	165.629028	-659.954529
1533.708801	256.234161	164.226334	-665.623718
1533.712138	252.902802	162.414520	-672.812500
1533.715477	249.688309	160.894943	-678.832336
1533.718804	246.532257	158.557129	-684.384644
1533.722137	242.148865	156.102417	-691.105896
1533.725464	239.051254	154.816635	-698.177795
1533.728802	234.726303	151.952805	-703.788513
1533.732138	231.336456	149.965668	-710.626648
1533.735470	227.011505	147.744751	-716.763428
1533.738814	222.861893	145.056259	-721.848145
1533.742131	218.420044	142.659988	-728.393982
1533.745462	214.270432	140.614410	-734.472351
1533.748798	209.536346	137.575256	-739.732422
1533.752135	204.217834	134.711426	-746.044495
1533.755471	199.483749	132.782730	-751.421448
1533.758799	194.399002	129.743576	-755.454224
1533.762129	189.781815	127.171982	-761.065002
1533.765464	184.697083	125.009491	-766.558838
1533.768811	179.378540	121.444336	-771.760498
1533.772129	173.884689	119.398743	-777.137451
1533.775461	169.384399	116.768707	-781.111755
1533.778794	163.130737	114.021774	-785.261353
1533.782132	157.403107	111.041061	-789.001892
1533.785463	152.201462	108.060349	-794.612610
1533.788793	145.947800	104.904297	-799.288269
1533.792180	140.161713	103.092499	-803.204102
1533.795461	133.615829	99.761108	-807.879700
1533.798795	127.946640	96.488174	-810.860413
1533.802130	121.400757	93.332123	-815.419189
1533.805463	115.439331	91.052750	-818.516724
1533.808791	108.718109	87.604477	-823.309326
1533.812131	103.048904	83.747086	-825.880859
1533.815459	96.503036	80.707916	-829.446045
1533.818795	89.898712	77.493431	-833.011230
1533.822127	83.528168	73.402252	-836.576416
1533.825460	76.573166	69.486420	-839.206421
1533.828790	69.793503	66.038139	-841.544250
1533.832125	62.721622	62.122303	-844.057373
1533.835459	55.941959	58.732471	-846.453613
1533.838790	48.986961	54.875076	-849.142151
1533.842121	41.739738	49.790329	-850.661682
1533.845478	34.843185	46.049828	-852.473511
1533.848790	27.654408	42.192436	-854.051575
1533.852121	19.881176	37.224579	-856.681580
1533.855456	12.458615	33.542522	-858.201172
1533.858807	5.152945	28.866896	-859.486938
1533.862121	-1.626715	24.600384	-859.837585
1533.865454	-8.698603	18.112951	-861.532593
1533.868787	-16.413387	14.314003	-861.707825
1533.872117	-23.309940	9.521483	-862.000061
1533.875450	-30.440273	4.670519	-861.883240
1533.878788	-37.453716	0.462454	-861.941711
1533.882119	-44.700939	-3.862503	-861.824768
1533.885453	-51.597492	-7.603004	-861.941711
1533.888794	-58.552486	-12.570858	-861.707825
1533.893450	-72.520935	-20.928543	-859.136292
1533.896775	-79.417480	-24.844383	-857.149109
1533.900065	-86.314026	-29.052448	-856.330933
1533.903400	-93.269028	-32.676064	-854.869812
1533.906827	-100.340912	-36.825684	-852.648804
1533.910132	-106.477676	-40.215515	-851.187744
1533.913056	-113.491119	-44.657360	-849.785034
1533.916355	-119.218765	-48.047192	-847.213440
1533.920065	-125.881531	-51.027905	-844.174255
1533.923399	-132.310516	-54.593075	-842.304016
1533.926314	-138.564163	-58.859577	-838.446655
1533.929720	-144.700928	-61.723400	-836.284119
1533.933029	-150.779251	-65.639236	-832.777405
1533.936298	-157.091354	-68.736847	-828.627808
1533.939625	-163.345001	-71.834442	-825.413269
1533.942986	-168.488190	-75.984070	-822.023437
1533.946387	-174.215836	-78.847885	-817.932312
1533.949693	-179.651245	-82.120834	-813.373596
1533.952976	-185.495789	-85.510666	-810.217468
1533.956280	-190.522095	-88.900482	-806.009460
1533.959646	-195.840607	-92.465652	-802.035156
1533.963046	-201.685150	-95.446381	-796.658203
1533.966386	-206.536118	-98.777756	-792.274780
1533.969617	-211.387070	-102.401367	-788.651184
1533.972954	-215.828934	-106.083420	-783.332642
1533.976308	-220.095428	-109.473251	-779.358337
1533.979685	-224.420395	-112.921539	-774.448914
1533.983046	-229.680481	-115.960693	-768.487549
1533.986285	-234.414551	-118.649185	-763.519714
1533.989618	-237.804382	-122.448135	-758.201172
1533.992971	-242.655365	-125.311951	-752.941040
1533.996389	-245.811401	-128.526443	-747.914734
1533.999699	-249.727234	-131.448715	-741.193542
1534.002952	-253.526184	-134.370972	-735.699646
1534.006295	-257.500458	-136.825684	-730.205872
1534.009632	-261.766968	-139.981735	-725.997742
1534.012971	-265.039917	-142.261108	-718.575195
1534.016367	-268.020630	-144.832703	-714.250244
1534.019225	-271.001343	-147.345856	-707.587524
1534.022947	-274.332733	-149.216095	-702.619629
1534.025864	-277.079651	-151.378586	-695.839966
1534.029192	-280.586365	-153.541061	-689.644714
1534.032547	-282.982635	-155.235977	-683.800232
1534.035883	-286.489349	-156.638672	-678.131042
1534.039192	-288.885620	-158.625793	-672.578674
1534.042525	-291.164978	-160.846725	-666.558838
1534.045854	-293.970367	-162.658539	-661.707886
1534.049211	-295.665283	-163.009201	-655.278870
1534.052522	-298.236877	-164.645676	-649.492798
1534.055853	-299.581146	-165.522354	-644.057373
1534.059195	-301.860474	-167.158829	-638.271301
1534.062524	-303.146271	-167.860168	-632.952759
1534.065874	-305.717896	-169.496643	-627.926453
1534.069195	-306.945251	-170.782425	-622.666382
1534.072551	-309.049255	-171.133102	-616.120483
1534.075853	-310.627319	-172.769577	-612.204651
1534.079190	-311.270203	-173.003357	-604.898987
1534.082538	-313.608002	-174.464493	-599.346680
1534.085854	-314.718475	-175.399628	-594.729492
1534.089217	-315.770508	-176.451630	-589.586304
1534.092520	-316.997864	-177.503647	-583.215759
1534.095855	-318.342072	-178.789444	-578.306335
1534.099209	-318.984985	-179.666138	-572.169617
1534.102528	-320.212341	-180.250580	-566.441956
1534.105851	-320.679901	-181.828598	-561.298767
1534.109183	-321.907257	-182.062393	-556.272461
1534.112515	-322.667053	-182.997528	-551.187683
1534.115870	-323.076172	-183.874191	-546.044495
1534.119205	-323.719055	-184.750870	-540.433777
1534.122517	-324.245056	-185.744431	-535.582764
1534.125444	-324.887970	-186.738022	-528.978455
1534.128764	-326.056885	-187.088684	-523.718384
1534.132097	-325.472412	-187.790039	-518.166077
1534.135499	-326.115295	-188.549805	-513.782654
1534.138764	-326.816681	-189.192734	-508.756378
1534.142098	-326.582886	-190.069397	-504.256073
1534.145428	-326.290649	-190.595413	-499.989563
1534.148761	-326.875092	-191.121414	-495.255493
1534.152092	-326.992004	-191.296753	-490.229187
1534.155427	-327.459564	-191.588989	-486.430237
1534.158758	-326.699768	-191.822769	-481.287079
1534.162094	-326.875092	-193.108566	-477.605042
1534.165424	-326.875092	-192.757904	-473.455414
1534.168758	-326.992004	-193.342331	-469.773315
1534.172088	-328.044006	-192.933228	-465.214600
1534.175421	-326.875092	-193.283905	-461.883240
1534.178782	-327.108887	-193.809906	-458.785614
1534.182087	-325.823090	-193.517670	-454.519104
1534.185419	-326.407532	-193.634567	-450.953918
1534.188755	-326.758209	-194.394363	-448.382324
1534.192089	-325.939972	-193.693024	-444.524963
1534.195418	-326.232208	-193.693024	-440.433777
1534.198758	-326.582886	-193.576126	-438.037506
1534.202090	-326.232208	-193.576126	-434.589233
1534.205421	-325.647736	-193.342331	-431.082520
1534.208757	-325.998413	-193.517670	-428.335571
1534.212084	-324.887970	-192.816330	-425.296417
1534.215420	-324.654175	-193.459229	-422.724823
1534.218749	-325.063293	-192.816330	-420.620789
1534.222087	-324.887970	-193.283905	-417.172516
1534.225420	-324.361969	-192.699432	-414.367157
